# phi (V)	sigma (uC/cm^2)
-2.000000000000000000e+00 -2.559005355834960938e+01
-1.862068891525268555e+00 -2.377989387512207031e+01
-1.724138021469116211e+00 -2.195745277404785156e+01
-1.586206912994384766e+00 -2.012356758117675781e+01
-1.448275804519653320e+00 -1.827984809875488281e+01
-1.310344815254211426e+00 -1.642827033996582031e+01
-1.172413825988769531e+00 -1.457168483734130859e+01
-1.034482717514038086e+00 -1.271366024017333984e+01
-8.965516686439514160e-01 -1.085909652709960938e+01
-7.586207389831542969e-01 -9.014142990112304688e+00
-6.206896305084228516e-01 -7.188174724578857422e+00
-4.827585816383361816e-01 -5.395799160003662109e+00
-3.448276221752166748e-01 -3.663613796234130859e+00
-2.068965435028076172e-01 -2.045779466629028320e+00
-6.896547973155975342e-02 -6.286544799804687500e-01
6.896547228097915649e-02 6.282983422279357910e-01
2.068965435028076172e-01 2.046665906906127930e+00
3.448276221752166748e-01 3.667827367782592773e+00
4.827585816383361816e-01 5.402036666870117188e+00
6.206896305084228516e-01 7.201508045196533203e+00
7.586207389831542969e-01 9.036427497863769531e+00
8.965516686439514160e-01 1.089271259307861328e+01
1.034482717514038086e+00 1.276164340972900391e+01
1.172413825988769531e+00 1.463743114471435547e+01
1.310344696044921875e+00 1.651552009582519531e+01
1.448275804519653320e+00 1.839283180236816406e+01
1.586206912994384766e+00 2.026666831970214844e+01
1.724138021469116211e+00 2.213467597961425781e+01
1.862068891525268555e+00 2.399539566040039062e+01
2.000000000000000000e+00 2.584741973876953125e+01
